X Position,Z Position,Body Angle,Hip 1 Angle,Knee 1 Angle,Hip 2 Angle,Knee 2 Angle,Hip 3 Angle,Knee 3 Angle,Hip 4 Angle,Knee 4 Angle,m.tt
0.0,0.9240151496381445,1.6004618548145715,-0.1782482875575376,-0.5426343447912123,-0.1789325144513562,0.6234458293636613,-0.16207747449387883,0.628325775047005,-0.16207105335919111,0.6283197586160241,0.03333332827354716
0.0025795885158917805,0.922774912223254,1.5780666788829958,-0.17133340285122375,-0.5117662629610671,-0.15380308059041298,0.6410816428167954,-0.13688189169160117,0.6472141556556993,-0.13687655276447072,0.6472091822680855,0.0489897874193268
0.004201917108193574,0.9227606178111878,1.5691439579646222,-0.19657549754010353,-0.38364252053294534,-0.12981682192016258,0.5556209871809442,-0.11459558526267226,0.5641157366007306,-0.11459106724985448,0.5641113189645187,0.03550509730893481
0.004474483211952062,0.9236794347685505,1.5662702207443187,-0.16598397240674434,-0.608608611347272,-0.17019695813518187,0.7359535665918034,-0.1544749127980929,0.7402205990558509,-0.15447068266208047,0.7402163089602374,0.015505100344824996
0.006620600504211257,0.9244222329465313,1.561580156991803,-0.18656166642588642,-0.5621275779591004,-0.16455321345058485,0.7130735776369566,-0.15155847474294132,0.7209157226056717,-0.1515552246222248,0.7209123524197396,0.0489897874193872
0.008269415645876832,0.9255143613110268,1.5605249793820375,-0.2153350161160991,-0.42492260442979835,-0.14628700731093794,0.6107574665105261,-0.13577946003450694,0.6238151964102301,-0.13577683163339363,0.6238122889204111,0.03550509730897744
0.008608843753091478,0.926730727655476,1.5600677090021096,-0.1838526139043402,-0.6475803379465754,-0.18740695240307276,0.7849144783625219,-0.17585601466532513,0.7926379715149889,-0.1758535889698608,0.7926350594642505,0.01550510034483299
0.01090501483233637,0.9282946943004838,1.5610837663286927,-0.20109498104264184,-0.5928862959173598,-0.18329642238936725,0.7447054134671545,-0.1736011573430233,0.7555353702155151,-0.17359945198169852,0.7555331453618075,0.048989787419413844
0.012644865720680378,0.9297045240573742,1.5623284781834177,-0.22753710678818864,-0.45218452282252486,-0.16481694232498273,0.6355706230043459,-0.15738409469625966,0.6520831406026598,-0.15738286064673124,0.6520813120233229,0.03550509730899609
0.013025008652019438,0.9309399856534947,1.562462952679461,-0.19543304980925524,-0.6720859742352825,-0.20540909086783465,0.8075158118339439,-0.19678906949673242,0.8185693759476982,-0.19678798780409687,0.818567417271341,0.015505100344831213
0.015416456928662158,0.9325119874672357,1.5646572348669563,-0.2102114700258431,-0.6107893391574749,-0.19935741684663888,0.7601072840749988,-0.19211861078659828,0.7737250403744812,-0.1921181125564909,0.7737236319542061,0.048989787419408515
0.017209707891039983,0.933788427345599,1.5660656746031367,-0.23495548752881654,-0.46749427560517354,-0.17928328642304872,0.6484101795475963,-0.17410617768876244,0.6675038806209848,-0.17410608340217773,0.6675028516589812,0.03550509730899254
0.01761088951139857,0.9349040269083833,1.5660969557131865,-0.2023400027933287,-0.6855357347439301,-0.2191500867339836,0.8201535225747216,-0.21278268490884295,0.8339752445007367,-0.21278272145539173,0.8339739481283155,0.015505100344825884
0.020054068203128824,0.9360976845516977,1.567880293978322,-0.21540533261187428,-0.6197857379448333,-0.21052166503392697,0.7695933261316293,-0.20525648770332175,0.7855508758189474,-0.20525707397054058,0.7855500805967778,0.04898978741939164
0.021873748562185102,0.9370547800274643,1.5688575781104037,-0.23913216118866137,-0.4746711565608786,-0.18877805491007452,0.6565815308247208,-0.18538828101400756,0.677657914021938,-0.18538927464441424,0.677657537275121,0.035505097308980105
0.022283269734018146,0.9380051663373278,1.568640870182245,-0.20616457257728332,-0.6919060112358755,-0.2281004464349635,0.8289680921327498,-0.2235359428494712,0.8449818637647374,-0.22353707080065546,0.8449810514771364,0.015505100344820555
0.024749241395397113,0.9387097755557784,1.5697714171352608,-0.21829595794725964,-0.6234937009283931,-0.2173467529335055,0.7766119470033127,-0.21366480010652272,0.7944413105872459,-0.2136665389680299,0.7944410375944021,0.04898978741937299
0.026579396353535508,0.9393236015740123,1.570340111108798,-0.2415707639156072,-0.47711857297753635,-0.19429257299979863,0.6624476624426907,-0.19230500835099065,0.685075445612594,-0.192307226945467,0.68507569671229,0.03550509730896767
0.026990671314093904,0.9401190721062217,1.5699279553657215,-0.20838768852777043,-0.6943073015826463,-0.2332940961833786,0.835683630882107,-0.23012721032812333,0.8533933104968685,-0.23012959176816675,0.8533929064941639,0.015505100344815226
0.029464214321352124,0.9403798390568185,1.5705982915198315,-0.2201531616417317,-0.6244565127699925,-0.22106479520190775,0.7819149526355287,-0.218573254552154,0.8011846827472137,-0.2185764088106132,0.8011849543827207,0.04898978741935878
0.031297992325695786,0.9407096141028495,1.5709279076034688,-0.2433397666414557,-0.477192104649659,-0.19707960758570453,0.6665572508268788,-0.19611302253731608,0.690378056500949,-0.1961168063951045,0.6903790428770117,0.035505097308956124
0.03170895965841914,0.941386556816201,1.5704052284927617,-0.2100399460665268,-0.694722315851283,-0.23590391896271065,0.8405490457846639,-0.23373320198175243,0.8595304414607791,-0.23373720618301927,0.8595304777457071,0.015505100344812561
0.03418552231192089,0.9413156551680557,1.5708427176594133,-0.22178006384656432,-0.624133374972014,-0.22269810088686937,0.7854997137038146,-0.22100547895476777,0.8058187671741818,-0.22101053848380747,0.8058197385946303,0.04898978741934901
0.0360226996314801,0.9414483042167089,1.5710726663201733,-0.2450771579333723,-0.47621356928912323,-0.1980469562866847,0.6689779229837243,-0.1977270800943171,0.6936592339401051,-0.19773301590949122,0.6936612249922441,0.03550509730894902
0.036434336125505014,0.9420487730323676,1.5705021324114776,-0.2117335317257954,-0.6941782543667747,-0.2367457849492117,0.8435090808364075,-0.23518517593389343,0.8633871043445871,-0.23519142680943683,0.8633877466380693,0.015505100344809897
0.03891697259078027,0.9417660041727958,1.5708528713702543,-0.22363804941727078,-0.6231660044510321,-0.222852715242598,0.7872709580744119,-0.2215866125562262,0.8082824340447801,-0.22159435697244875,0.8082844371561726,0.04898978741934368
0.040761997092802316,0.9417812929630859,1.5710585207378582,-0.24715001201513515,-0.4747350692298817,-0.19767891859433132,0.669699017877937,-0.19764947605873445,0.6949200668140243,-0.19765847172845755,0.6949235525411096,0.035505097308945466
0.04117730401879927,0.9423406911931973,1.5704748426249104,-0.2138255261665939,-0.6930488069971845,-0.2362351267662562,0.8445035544491986,-0.23492216993718132,0.8649349767888751,-0.23493162605436022,0.8649365797165277,0.015505100344809897
0.043674548818748264,0.9419385881008188,1.5708022812735392,-0.22601456096587724,-0.6216773025622964,-0.22177493856515818,0.7871443619895425,-0.22058583197423048,0.8085195335671342,-0.22059742782094985,0.8085231562935566,0.04898978741934279
0.045535388167661325,0.9418898919834445,1.5710067691136345,-0.24980906041887677,-0.4728137154777735,-0.19612556011951748,0.6686702024611315,-0.1960480477318355,0.6941231222108077,-0.19606144374157683,0.6941289118628653,0.03550509730894458
0.045958859584586335,0.9424306701561693,1.5704232191085445,-0.21656510637178567,-0.6913048630323724,-0.23447398997057156,0.843454157437822,-0.2330650807503912,0.8641170401964595,-0.23307915343100075,0.8641202467470029,0.015505100344810785
0.048483656573727434,0.9419568461566031,1.570725919058445,-0.22913454857695217,-0.6194610118857271,-0.21943963006231162,0.7849961860117337,-0.21799308101666595,0.8064295009482378,-0.2180102191598409,0.8064357190401915,0.048989787419344566
0.05037135463134313,0.9418621896694799,1.5709080998985703,-0.2532687946389719,-0.4701645866403801,-0.193278619033515,0.6657689000724576,-0.19282520413670348,0.69116318301953,-0.1928449275620742,0.6911725617765435,0.035505097308946354
0.050808809771193036,0.9423913985916342,1.5703177319755766,-0.22016231643130035,-0.6886179907399278,-0.23131159596959636,0.8402174565049985,-0.22947260118158286,0.8608047450708288,-0.22949331757803956,0.8608106575967225,0.015505100344812561
0.05337837996054657,0.9418416279931635,1.570524820341833,-0.2331775917008103,-0.6160025363943306,-0.2155719857010658,0.7806379575593664,-0.21354110457683778,0.801841565164912,-0.21356617825491642,0.8018519515558618,0.04898978741935078
0.055307288362477725,0.941680998814414,1.5706057230815536,-0.25768517465967394,-0.46614109915597485,-0.1887629771606077,0.6608109733926959,-0.18761440391550796,0.6858743870806725,-0.18764315624604078,0.6858893507317143,0.035505097308950795
0.0557660194952834,0.9421903344913093,1.5699721397461566,-0.22475193452774547,-0.6842705591914435,-0.22631850665698883,0.8346058932409904,-0.2237254855906786,0.8548263678055497,-0.22375568663987147,0.85483662994496,0.015505100344815226
0.05840281530643031,0.9415086692251878,1.5699127091324612,-0.23817341029964845,-0.6103184193569546,-0.20957349049165108,0.7738543833753737,-0.20664566199258494,0.7945522666275098,-0.20668233308850212,0.7945694356868545,0.04898978741936055
0.06039191799392294,0.9412261785552827,1.5697286006469928,-0.26299778145552544,-0.4595541236634374,-0.1818278169700673,0.6535977788529516,-0.1796881863322593,0.6780666870762253,-0.17973058586912555,0.6780906724136363,0.0355050973089579
0.06088104884642722,0.9416944341185286,1.568973108564276,-0.23022053016407834,-0.676868062267928,-0.21865890629034193,0.8263665354928919,-0.21502794428649372,0.8459574856531727,-0.2150710972217548,0.8459768850634186,0.015505100344820555
0.06361157386373736,0.9407804166574325,1.5683692443800379,-0.24375193430267522,-0.6006743090161561,-0.200470243967705,0.7644127036785706,-0.19643249720206477,0.7843655800662354,-0.19646462600149636,0.7843790055131629,0.048989787419374764
0.06568044500156144,0.9402920365629547,1.5676924625881552,-0.2686521387877623,-0.4484602334923934,-0.1714517739255417,0.6439259402965619,-0.1682223451665593,0.6675861366223874,-0.16822661390878257,0.6675807715865028,0.03550509730896856
0.066209260086648,0.9406908960506862,1.566705130796441,-0.23595606170961056,-0.6638121011824935,-0.20727101658727456,0.8152412067298835,-0.20259859123467822,0.8342102564394778,-0.20258738208014496,0.8341891783282179,0.015505100344825884
0.0690707629092757,0.9394167513989307,1.5652375599402795,-0.24877769994700893,-0.584167864121269,-0.18705545461283082,0.751801861517253,-0.18189922333599728,0.7709011794888204,-0.18186549444580263,0.7708671581504505,0.048989787419393416
0.07125953086582122,0.9386289462623417,1.563850411083354,-0.273066612129075,-0.4299297266345028,-0.15614463579067386,0.6310765658974646,-0.15169197341744023,0.6536094166471756,-0.15165991481596897,0.6535785944145898,0.03550509730898188
0.07184692660168558,0.9389367387307918,1.5625427230672322,-0.24028837095564146,-0.6407166338237416,-0.19045136609092753,0.7997956241118609,-0.18468501843576016,0.8185218876898455,-0.18465554738973508,0.8184910520812829,0.01550510034483299
0.07489252205474366,0.9371833385702713,1.56026170363496,-0.2505549921188609,-0.5566982314707679,-0.16797196374935072,0.73402197028545,-0.161413951540022,0.7521583174659444,-0.1613930670846727,0.7521354394303567,0.04898978741941473
0.07724367015792818,0.9360239932452667,1.558479358964608,-0.27275963434218686,-0.4007568717246909,-0.13523704033915712,0.6125174453282425,-0.1291817417097249,0.633227642379378,-0.12916565761004747,0.6332096741737997,0.03550509730899698
0.07790822531779772,0.9362461754570623,1.5570653814050153,-0.23989603723929648,-0.6006786569228111,-0.16770809970861628,0.7756252267746515,-0.1607760094156156,0.794975309850243,-0.16076112545826196,0.7949579817847935,0.015505100344839207
0.08118993306278796,0.9339593150684203,1.5554216620925565,-0.24401702764769828,-0.5140006579211166,-0.1447294449152948,0.7049428682665839,-0.13636727784894206,0.7221576457571529,-0.1363548884546479,0.7221443227433563,0.04898978741943427
0.08375813991430413,0.9324261443429454,1.5550174877225407,-0.2612625069497757,-0.36028861988211647,-0.11195373349187301,0.5807659987116623,-0.103446881005969,0.5984353518982741,-0.10343358793031639,0.5984231416933493,0.03550509730901119
0.08452962780925631,0.9326252479007288,1.5545051061420285,-0.22914919970788253,-0.5355720969866422,-0.14249998173004252,0.7303475301513441,-0.1339031124856764,0.7515066172327182,-0.1338887732704191,0.7514938649877465,0.015505100344841871
0.08809413787241757,0.9299108008298469,1.5579936232647027,-0.22132514908595094,-0.45582836660468495,-0.12505280750099645,0.6489996729152503,-0.11382553878933466,0.6653053513850578,-0.11381130947136273,0.6652938779538267,0.04898978741944049
0.09093586423904694,0.9281365445139488,1.563657749762138,-0.2287145106900461,-0.3178268402949195,-0.09792946885465081,0.5185445767049857,-0.08511843484951605,0.5311745352595529,-0.08510637956967478,0.5311643732623983,0.03550509730901652
0.09180146277862898,0.9283970688458598,1.566702813833167,-0.19570691301977972,-0.48088272220573214,-0.13095610576757474,0.6536710024865212,-0.11885680083873147,0.6748145778823629,-0.11884569347172322,0.6748043030896,0.015505100344841871
0.0952710133864724,0.9255507422254619,1.587033520727754,-0.19544128999391264,-0.408216246577912,-0.1381320188459212,0.5482722366872993,-0.12397760629874588,0.5625498816260188,-0.12396957469646364,0.562542341411525,0.04898978741944049
0.09753734274969077,0.923741980023496,1.6106387107181264,-0.22342577060159777,-0.3199601465453288,-0.1472698872169655,0.4272196863296977,-0.13140117156004172,0.433709426587415,-0.13139450399516772,0.4337032806932675,0.03550509730901652
0.09866100634094149,0.9256349727044046,1.6115000858442745,-0.23345172972353823,-0.3185229815477749,-0.11244017931180587,0.3794588440511066,-0.0881267280179543,0.3693870888824122,-0.08812009906462501,0.36938141750735426,0.005102133570266787
0.10594996494706317,0.970612181401919,1.6113553850825044,-0.2694809550373363,-0.310212089975945,-0.02478252338312396,0.34926123117883123,-0.0006171374410232286,0.34562731549635944,-0.0006103688337727176,0.3456224689002493,0.016120658962882395
0.11913177566288594,1.03703485038684,1.591843074372621,-0.28932884512060364,-0.2005757247554586,0.2185346659016535,0.11056248005303088,0.2641883884134398,0.07126346847539672,0.2641959921761423,0.07125830316126691,0.01168336490680133
